TITLE	
DATA TYPE	
ORIGIN	JASCO
OWNER	
DATE	25/03/18
TIME	16:49:31
SPECTROMETER/DATA SYSTEM	JASCO Corp., V-560, Rev. 1.00
RESOLUTION	
DELTAX	-1
XUNITS	NANOMETERS
YUNITS	TRANSMITTANCE
FIRSTX	800.0000
LASTX	400.0000
NPOINTS	401
FIRSTY	1.00894
MAXY	1.01595
MINY	0.00104
XYDATA
800.0000	100.894
799.0000	101.301
798.0000	101.595
797.0000	101.413
796.0000	100.809
795.0000	100.088
794.0000	100.226
793.0000	99.97
792.0000	99.502
791.0000	99.4
790.0000	99.82
789.0000	99.355
788.0000	99.433
787.0000	99.634
786.0000	99.4
785.0000	99.272
784.0000	98.873
783.0000	99.267
782.0000	98.616
781.0000	99.182
780.0000	99.342
779.0000	99.029
778.0000	99.119
777.0000	99.097
776.0000	99.072
775.0000	98.801
774.0000	99.289
773.0000	99.041
772.0000	98.955
771.0000	99.722
770.0000	99.546
769.0000	99.827
768.0000	100.007
767.0000	99.582
766.0000	99.219
765.0000	99.394
764.0000	99.29
763.0000	99.257
762.0000	99.114
761.0000	99.125
760.0000	99.263
759.0000	99.457
758.0000	100.033
757.0000	99.715
756.0000	99.882
755.0000	99.745
754.0000	100.157
753.0000	100.217
752.0000	100.201
751.0000	99.98
750.0000	99.146
749.0000	99.843
748.0000	99.854
747.0000	100.034
746.0000	100.096
745.0000	99.873
744.0000	99.702
743.0000	99.824
742.0000	99.302
741.0000	98.066
740.0000	98.509
739.0000	98.358
738.0000	98.512
737.0000	98.931
736.0000	98.832
735.0000	98.783
734.0000	98.993
733.0000	99.398
732.0000	98.858
731.0000	98.52
730.0000	99.007
729.0000	98.722
728.0000	98.713
727.0000	98.822
726.0000	98.002
725.0000	97.958
724.0000	98.137
723.0000	98.689
722.0000	98.287
721.0000	97.768
720.0000	97.71
719.0000	97.768
718.0000	98.375
717.0000	98.115
716.0000	97.684
715.0000	97.622
714.0000	97.713
713.0000	98.296
712.0000	97.814
711.0000	97.162
710.0000	96.982
709.0000	97.274
708.0000	97.29
707.0000	97.069
706.0000	97.109
705.0000	96.6
704.0000	96.497
703.0000	96.597
702.0000	95.897
701.0000	95.34
700.0000	95.292
699.0000	94.833
698.0000	94.232
697.0000	94.118
696.0000	93.773
695.0000	92.996
694.0000	92.864
693.0000	92.584
692.0000	91.789
691.0000	91.372
690.0000	90.767
689.0000	89.854
688.0000	89.143
687.0000	88.651
686.0000	87.526
685.0000	86.313
684.0000	85.712
683.0000	84.995
682.0000	83.996
681.0000	82.855
680.0000	82.293
679.0000	81.185
678.0000	80.42
677.0000	79.434
676.0000	78.034
675.0000	76.342
674.0000	74.617
673.0000	73.342
672.0000	71.372
671.0000	69.716
670.0000	67.513
669.0000	65.323
668.0000	62.707
667.0000	60.137
666.0000	57.673
665.0000	54.429
664.0000	50.866
663.0000	46.931
662.0000	42.891
661.0000	38.68
660.0000	34.576
659.0000	30.389
658.0000	25.996
657.0000	22.041
656.0000	18.259
655.0000	14.866
654.0000	11.898
653.0000	9.299
652.0000	7.126
651.0000	5.339
650.0000	3.978
649.0000	2.868
648.0000	2.071
647.0000	1.471
646.0000	1.036
645.0000	0.761
644.0000	0.518
643.0000	0.361
642.0000	0.273
641.0000	0.198
640.0000	0.172
639.0000	0.152
638.0000	0.132
637.0000	0.11
636.0000	0.104
635.0000	0.108
634.0000	0.116
633.0000	0.119
632.0000	0.162
631.0000	0.189
630.0000	0.236
629.0000	0.28
628.0000	0.35
627.0000	0.436
626.0000	0.543
625.0000	0.705
624.0000	0.86
623.0000	1.047
622.0000	1.256
621.0000	1.504
620.0000	1.773
619.0000	2.054
618.0000	2.353
617.0000	2.651
616.0000	2.958
615.0000	3.256
614.0000	3.55
613.0000	3.848
612.0000	4.167
611.0000	4.429
610.0000	4.699
609.0000	4.907
608.0000	5.094
607.0000	5.26
606.0000	5.414
605.0000	5.472
604.0000	5.442
603.0000	5.42
602.0000	5.304
601.0000	5.179
600.0000	4.948
599.0000	4.655
598.0000	4.347
597.0000	4.039
596.0000	3.729
595.0000	3.409
594.0000	3.1
593.0000	2.803
592.0000	2.567
591.0000	2.377
590.0000	2.163
589.0000	2
588.0000	1.856
587.0000	1.734
586.0000	1.659
585.0000	1.605
584.0000	1.586
583.0000	1.603
582.0000	1.651
581.0000	1.711
580.0000	1.838
579.0000	1.984
578.0000	2.123
577.0000	2.291
576.0000	2.473
575.0000	2.633
574.0000	2.799
573.0000	2.958
572.0000	3.047
571.0000	3.155
570.0000	3.237
569.0000	3.273
568.0000	3.289
567.0000	3.303
566.0000	3.326
565.0000	3.35
564.0000	3.424
563.0000	3.46
562.0000	3.53
561.0000	3.633
560.0000	3.772
559.0000	3.95
558.0000	4.121
557.0000	4.309
556.0000	4.495
555.0000	4.706
554.0000	4.909
553.0000	5.11
552.0000	5.308
551.0000	5.477
550.0000	5.667
549.0000	5.815
548.0000	6.001
547.0000	6.152
546.0000	6.326
545.0000	6.498
544.0000	6.689
543.0000	6.893
542.0000	7.095
541.0000	7.378
540.0000	7.644
539.0000	7.96
538.0000	8.291
537.0000	8.626
536.0000	8.971
535.0000	9.294
534.0000	9.652
533.0000	9.946
532.0000	10.209
531.0000	10.461
530.0000	10.636
529.0000	10.808
528.0000	10.896
527.0000	11.039
526.0000	11.115
525.0000	11.192
524.0000	11.341
523.0000	11.55
522.0000	11.799
521.0000	12.028
520.0000	12.419
519.0000	12.542
518.0000	12.658
517.0000	12.747
516.0000	13.004
515.0000	13.256
514.0000	13.532
513.0000	13.835
512.0000	14.134
511.0000	14.375
510.0000	14.59
509.0000	14.841
508.0000	15.095
507.0000	15.355
506.0000	15.548
505.0000	15.837
504.0000	16.08
503.0000	16.334
502.0000	16.67
501.0000	16.979
500.0000	17.234
499.0000	17.526
498.0000	17.793
497.0000	18.021
496.0000	18.205
495.0000	18.426
494.0000	18.566
493.0000	18.675
492.0000	18.702
491.0000	18.754
490.0000	18.79
489.0000	18.782
488.0000	18.688
487.0000	18.613
486.0000	18.535
485.0000	18.413
484.0000	18.304
483.0000	18.121
482.0000	17.945
481.0000	17.72
480.0000	17.586
479.0000	17.359
478.0000	17.084
477.0000	16.874
476.0000	16.73
475.0000	16.52
474.0000	16.299
473.0000	16.149
472.0000	15.931
471.0000	15.808
470.0000	15.667
469.0000	15.512
468.0000	15.422
467.0000	15.398
466.0000	15.367
465.0000	15.322
464.0000	15.367
463.0000	15.316
462.0000	15.384
461.0000	15.464
460.0000	15.423
459.0000	15.402
458.0000	15.397
457.0000	15.394
456.0000	15.377
455.0000	15.452
454.0000	15.412
453.0000	15.439
452.0000	15.444
451.0000	15.427
450.0000	15.433
449.0000	15.451
448.0000	15.437
447.0000	15.379
446.0000	15.383
445.0000	15.295
444.0000	15.286
443.0000	15.294
442.0000	15.231
441.0000	15.122
440.0000	15.079
439.0000	15.045
438.0000	14.973
437.0000	14.946
436.0000	14.91
435.0000	14.893
434.0000	14.896
433.0000	14.992
432.0000	15.037
431.0000	15.038
430.0000	15.162
429.0000	15.224
428.0000	15.328
427.0000	15.445
426.0000	15.602
425.0000	15.688
424.0000	15.954
423.0000	16.129
422.0000	16.31
421.0000	16.444
420.0000	16.475
419.0000	16.483
418.0000	16.557
417.0000	16.57
416.0000	16.602
415.0000	16.865
414.0000	17.092
413.0000	17.257
412.0000	17.505
411.0000	17.712
410.0000	17.93
409.0000	18.284
408.0000	18.572
407.0000	18.807
406.0000	19.006
405.0000	19.412
404.0000	19.955
403.0000	20.418
402.0000	20.892
401.0000	21.13
400.0000	21.434
