TITLE	
DATA TYPE	
ORIGIN	JASCO
OWNER	
DATE	25/03/18
TIME	17:20:24
SPECTROMETER/DATA SYSTEM	JASCO Corp., V-560, Rev. 1.00
RESOLUTION	
DELTAX	-1
XUNITS	NANOMETERS
YUNITS	TRANSMITTANCE
FIRSTX	800.0000
LASTX	400.0000
NPOINTS	401
FIRSTY	0.78763
MAXY	0.79522
MINY	0.24130
XYDATA
800.0000	78.763
799.0000	78.819
798.0000	79.522
797.0000	79.144
796.0000	78.574
795.0000	78.906
794.0000	78.688
793.0000	78.329
792.0000	78.228
791.0000	78.193
790.0000	77.928
789.0000	77.777
788.0000	77.316
787.0000	77.754
786.0000	77.782
785.0000	77.774
784.0000	77.403
783.0000	77.311
782.0000	76.871
781.0000	77.154
780.0000	77.48
779.0000	77.507
778.0000	77.594
777.0000	77.573
776.0000	77.638
775.0000	77.402
774.0000	77.572
773.0000	77.185
772.0000	76.916
771.0000	76.606
770.0000	76.468
769.0000	76.445
768.0000	76.467
767.0000	76.663
766.0000	76.71
765.0000	77.053
764.0000	77.217
763.0000	77.362
762.0000	77.703
761.0000	77.712
760.0000	77.531
759.0000	77.813
758.0000	77.922
757.0000	78.059
756.0000	78.317
755.0000	77.94
754.0000	78.125
753.0000	77.941
752.0000	78.154
751.0000	77.76
750.0000	77.687
749.0000	77.362
748.0000	76.926
747.0000	76.992
746.0000	76.118
745.0000	76.463
744.0000	76.593
743.0000	76.879
742.0000	77.358
741.0000	78.155
740.0000	77.542
739.0000	76.997
738.0000	76.927
737.0000	76.643
736.0000	76.382
735.0000	76.48
734.0000	76.968
733.0000	77.114
732.0000	77.042
731.0000	76.916
730.0000	77.052
729.0000	77.377
728.0000	77.408
727.0000	76.935
726.0000	76.489
725.0000	76.448
724.0000	76.134
723.0000	76.542
722.0000	75.94
721.0000	76.034
720.0000	75.795
719.0000	76.115
718.0000	76.27
717.0000	76.023
716.0000	76.373
715.0000	76.086
714.0000	76.335
713.0000	76.172
712.0000	76.832
711.0000	76.782
710.0000	76.944
709.0000	77.033
708.0000	76.911
707.0000	77.192
706.0000	77.22
705.0000	77.347
704.0000	76.826
703.0000	76.88
702.0000	76.789
701.0000	76.715
700.0000	76.398
699.0000	76.554
698.0000	76.554
697.0000	76.378
696.0000	76.534
695.0000	76.258
694.0000	76.228
693.0000	76.096
692.0000	76.516
691.0000	76.213
690.0000	76.133
689.0000	76.287
688.0000	76.077
687.0000	75.985
686.0000	75.676
685.0000	75.739
684.0000	75.561
683.0000	75.5
682.0000	75.52
681.0000	75.376
680.0000	75.272
679.0000	75.242
678.0000	75.078
677.0000	74.892
676.0000	74.87
675.0000	74.686
674.0000	74.535
673.0000	74.349
672.0000	74.171
671.0000	74.013
670.0000	74.277
669.0000	74.382
668.0000	74.282
667.0000	74.045
666.0000	73.902
665.0000	73.718
664.0000	73.477
663.0000	73.352
662.0000	72.832
661.0000	72.132
660.0000	71.542
659.0000	70.992
658.0000	70.201
657.0000	69.374
656.0000	68.604
655.0000	67.085
654.0000	65.497
653.0000	63.902
652.0000	61.808
651.0000	59.51
650.0000	57.146
649.0000	54.625
648.0000	51.513
647.0000	48.817
646.0000	46.015
645.0000	43.096
644.0000	40.338
643.0000	37.606
642.0000	34.973
641.0000	32.493
640.0000	30.6
639.0000	28.963
638.0000	27.489
637.0000	26.44
636.0000	25.813
635.0000	25.595
634.0000	25.724
633.0000	26.207
632.0000	26.996
631.0000	27.949
630.0000	29.229
629.0000	30.52
628.0000	31.985
627.0000	33.571
626.0000	35.15
625.0000	36.764
624.0000	38.333
623.0000	39.892
622.0000	41.225
621.0000	42.839
620.0000	44.217
619.0000	45.517
618.0000	46.644
617.0000	47.779
616.0000	48.74
615.0000	49.734
614.0000	50.754
613.0000	51.407
612.0000	52.055
611.0000	52.71
610.0000	53.367
609.0000	53.895
608.0000	54.436
607.0000	54.724
606.0000	55.021
605.0000	55.328
604.0000	55.661
603.0000	55.844
602.0000	55.861
601.0000	55.858
600.0000	55.599
599.0000	55.299
598.0000	54.867
597.0000	54.405
596.0000	53.724
595.0000	52.948
594.0000	52.205
593.0000	51.422
592.0000	50.779
591.0000	50.064
590.0000	49.413
589.0000	48.758
588.0000	48.209
587.0000	47.776
586.0000	47.405
585.0000	47.129
584.0000	46.914
583.0000	46.842
582.0000	47.055
581.0000	47.334
580.0000	47.849
579.0000	48.325
578.0000	48.886
577.0000	49.333
576.0000	49.954
575.0000	50.567
574.0000	51.09
573.0000	51.486
572.0000	51.815
571.0000	52.118
570.0000	52.344
569.0000	52.717
568.0000	52.732
567.0000	52.886
566.0000	52.748
565.0000	52.714
564.0000	52.565
563.0000	52.518
562.0000	52.463
561.0000	52.396
560.0000	52.296
559.0000	52.291
558.0000	52.352
557.0000	52.341
556.0000	52.4
555.0000	52.356
554.0000	52.49
553.0000	52.513
552.0000	52.648
551.0000	52.595
550.0000	52.653
549.0000	52.733
548.0000	52.8
547.0000	52.924
546.0000	52.925
545.0000	52.939
544.0000	53.125
543.0000	53.243
542.0000	53.305
541.0000	53.518
540.0000	53.767
539.0000	54.096
538.0000	54.487
537.0000	54.824
536.0000	55.107
535.0000	55.389
534.0000	55.69
533.0000	55.985
532.0000	56.073
531.0000	56.131
530.0000	56.143
529.0000	56.246
528.0000	56.37
527.0000	56.425
526.0000	56.465
525.0000	56.412
524.0000	56.498
523.0000	56.422
522.0000	56.312
521.0000	56.517
520.0000	56.001
519.0000	55.772
518.0000	55.476
517.0000	55.222
516.0000	55.147
515.0000	55.188
514.0000	55.204
513.0000	55.116
512.0000	55.058
511.0000	55.079
510.0000	54.966
509.0000	54.763
508.0000	54.692
507.0000	54.475
506.0000	54.245
505.0000	54.168
504.0000	54.15
503.0000	53.944
502.0000	53.825
501.0000	53.687
500.0000	53.436
499.0000	53.121
498.0000	52.693
497.0000	52.329
496.0000	51.83
495.0000	51.319
494.0000	50.707
493.0000	50.203
492.0000	49.513
491.0000	48.906
490.0000	48.274
489.0000	47.432
488.0000	46.621
487.0000	45.718
486.0000	44.842
485.0000	43.914
484.0000	43.058
483.0000	42.204
482.0000	41.284
481.0000	40.394
480.0000	39.509
479.0000	38.774
478.0000	38.024
477.0000	37.21
476.0000	36.391
475.0000	35.615
474.0000	34.954
473.0000	34.349
472.0000	33.762
471.0000	33.228
470.0000	32.665
469.0000	32.263
468.0000	31.848
467.0000	31.451
466.0000	31.083
465.0000	30.778
464.0000	30.508
463.0000	30.233
462.0000	30.028
461.0000	29.754
460.0000	29.605
459.0000	29.368
458.0000	29.244
457.0000	29.073
456.0000	28.953
455.0000	28.806
454.0000	28.596
453.0000	28.479
452.0000	28.342
451.0000	28.206
450.0000	27.994
449.0000	27.842
448.0000	27.583
447.0000	27.276
446.0000	27.06
445.0000	26.712
444.0000	26.401
443.0000	26.116
442.0000	25.865
441.0000	25.573
440.0000	25.272
439.0000	25.065
438.0000	24.847
437.0000	24.782
436.0000	24.623
435.0000	24.453
434.0000	24.318
433.0000	24.223
432.0000	24.189
431.0000	24.224
430.0000	24.259
429.0000	24.17
428.0000	24.13
427.0000	24.167
426.0000	24.255
425.0000	24.289
424.0000	24.462
423.0000	24.575
422.0000	24.901
421.0000	25.05
420.0000	24.983
419.0000	24.992
418.0000	25.051
417.0000	25.101
416.0000	25.218
415.0000	25.338
414.0000	25.485
413.0000	25.626
412.0000	25.752
411.0000	26.011
410.0000	26.156
409.0000	26.44
408.0000	26.763
407.0000	26.983
406.0000	27.229
405.0000	27.631
404.0000	28.227
403.0000	28.757
402.0000	29.17
401.0000	29.611
400.0000	29.847
