TITLE	
DATA TYPE	
ORIGIN	JASCO
OWNER	
DATE	25/03/18
TIME	17:36:04
SPECTROMETER/DATA SYSTEM	JASCO Corp., V-560, Rev. 1.00
RESOLUTION	
DELTAX	-1
XUNITS	NANOMETERS
YUNITS	TRANSMITTANCE
FIRSTX	800.0000
LASTX	400.0000
NPOINTS	401
FIRSTY	0.76710
MAXY	0.77660
MINY	0.00320
XYDATA
800.0000	76.71
799.0000	76.51
798.0000	76.304
797.0000	75.775
796.0000	75.832
795.0000	76.199
794.0000	76.474
793.0000	76.727
792.0000	76.76
791.0000	77.029
790.0000	77.345
789.0000	77.66
788.0000	77.583
787.0000	77.515
786.0000	77.265
785.0000	76.844
784.0000	77.036
783.0000	76.544
782.0000	76.578
781.0000	76.157
780.0000	76.374
779.0000	76.493
778.0000	76.49
777.0000	76.696
776.0000	76.743
775.0000	76.705
774.0000	76.664
773.0000	76.599
772.0000	76.285
771.0000	76.089
770.0000	76.16
769.0000	75.776
768.0000	75.401
767.0000	75.821
766.0000	75.683
765.0000	76.162
764.0000	76.043
763.0000	76.413
762.0000	76.113
761.0000	76.417
760.0000	76.58
759.0000	76.872
758.0000	77.034
757.0000	76.985
756.0000	77.368
755.0000	76.668
754.0000	77.082
753.0000	76.486
752.0000	76.258
751.0000	75.633
750.0000	75.707
749.0000	75.392
748.0000	75.197
747.0000	75.402
746.0000	74.982
745.0000	75.197
744.0000	75.476
743.0000	75.239
742.0000	75.418
741.0000	75.638
740.0000	75.191
739.0000	75.37
738.0000	75.489
737.0000	75.361
736.0000	75.194
735.0000	75.456
734.0000	75.514
733.0000	75.756
732.0000	75.889
731.0000	75.424
730.0000	75.778
729.0000	75.616
728.0000	75.607
727.0000	75.371
726.0000	75.465
725.0000	75.075
724.0000	75.019
723.0000	75.217
722.0000	74.519
721.0000	74.825
720.0000	74.947
719.0000	74.674
718.0000	74.612
717.0000	74.691
716.0000	74.624
715.0000	74.512
714.0000	74.806
713.0000	74.684
712.0000	74.648
711.0000	74.748
710.0000	74.782
709.0000	74.628
708.0000	74.556
707.0000	74.632
706.0000	74.428
705.0000	74.327
704.0000	73.956
703.0000	73.913
702.0000	73.523
701.0000	73.511
700.0000	73.169
699.0000	73.064
698.0000	73.084
697.0000	72.669
696.0000	72.282
695.0000	71.844
694.0000	71.629
693.0000	71.164
692.0000	71.117
691.0000	70.594
690.0000	70.295
689.0000	70.119
688.0000	70.017
687.0000	69.703
686.0000	69.158
685.0000	68.876
684.0000	68.195
683.0000	67.712
682.0000	66.923
681.0000	66.48
680.0000	65.753
679.0000	65.198
678.0000	64.532
677.0000	63.958
676.0000	63.525
675.0000	62.903
674.0000	62.284
673.0000	61.225
672.0000	60.626
671.0000	59.646
670.0000	58.836
669.0000	57.807
668.0000	56.456
667.0000	54.958
666.0000	53.208
665.0000	51.442
664.0000	49.146
663.0000	46.781
662.0000	44.094
661.0000	41.054
660.0000	37.933
659.0000	34.603
658.0000	31.196
657.0000	27.656
656.0000	24.263
655.0000	20.793
654.0000	17.524
653.0000	14.538
652.0000	11.849
651.0000	9.473
650.0000	7.442
649.0000	5.765
648.0000	4.347
647.0000	3.292
646.0000	2.469
645.0000	1.829
644.0000	1.367
643.0000	1.022
642.0000	0.789
641.0000	0.612
640.0000	0.493
639.0000	0.414
638.0000	0.361
637.0000	0.328
636.0000	0.32
635.0000	0.33
634.0000	0.341
633.0000	0.377
632.0000	0.433
631.0000	0.498
630.0000	0.595
629.0000	0.71
628.0000	0.835
627.0000	0.977
626.0000	1.17
625.0000	1.391
624.0000	1.627
623.0000	1.895
622.0000	2.186
621.0000	2.5
620.0000	2.845
619.0000	3.206
618.0000	3.565
617.0000	3.949
616.0000	4.312
615.0000	4.693
614.0000	5.084
613.0000	5.465
612.0000	5.846
611.0000	6.225
610.0000	6.596
609.0000	6.918
608.0000	7.264
607.0000	7.566
606.0000	7.82
605.0000	8.021
604.0000	8.197
603.0000	8.285
602.0000	8.289
601.0000	8.226
600.0000	8.066
599.0000	7.821
598.0000	7.503
597.0000	7.16
596.0000	6.754
595.0000	6.339
594.0000	5.92
593.0000	5.53
592.0000	5.161
591.0000	4.817
590.0000	4.533
589.0000	4.268
588.0000	4.065
587.0000	3.899
586.0000	3.786
585.0000	3.726
584.0000	3.696
583.0000	3.746
582.0000	3.815
581.0000	3.957
580.0000	4.132
579.0000	4.351
578.0000	4.553
577.0000	4.792
576.0000	5.063
575.0000	5.323
574.0000	5.575
573.0000	5.792
572.0000	5.986
571.0000	6.108
570.0000	6.254
569.0000	6.323
568.0000	6.354
567.0000	6.355
566.0000	6.343
565.0000	6.327
564.0000	6.324
563.0000	6.362
562.0000	6.423
561.0000	6.533
560.0000	6.643
559.0000	6.839
558.0000	7.04
557.0000	7.25
556.0000	7.445
555.0000	7.676
554.0000	7.863
553.0000	8.081
552.0000	8.332
551.0000	8.542
550.0000	8.793
549.0000	9.04
548.0000	9.318
547.0000	9.57
546.0000	9.879
545.0000	10.15
544.0000	10.441
543.0000	10.682
542.0000	10.971
541.0000	11.273
540.0000	11.592
539.0000	11.948
538.0000	12.328
537.0000	12.682
536.0000	13.06
535.0000	13.484
534.0000	13.884
533.0000	14.233
532.0000	14.527
531.0000	14.803
530.0000	15.026
529.0000	15.274
528.0000	15.487
527.0000	15.662
526.0000	15.77
525.0000	15.934
524.0000	16.259
523.0000	16.483
522.0000	16.651
521.0000	16.983
520.0000	17.327
519.0000	17.323
518.0000	17.422
517.0000	17.529
516.0000	17.844
515.0000	18.248
514.0000	18.559
513.0000	18.848
512.0000	19.231
511.0000	19.59
510.0000	19.78
509.0000	20.043
508.0000	20.284
507.0000	20.443
506.0000	20.654
505.0000	20.891
504.0000	21.04
503.0000	21.26
502.0000	21.545
501.0000	21.708
500.0000	21.876
499.0000	22.057
498.0000	22.223
497.0000	22.326
496.0000	22.372
495.0000	22.412
494.0000	22.408
493.0000	22.423
492.0000	22.371
491.0000	22.267
490.0000	22.079
489.0000	21.887
488.0000	21.81
487.0000	21.601
486.0000	21.362
485.0000	21.137
484.0000	20.938
483.0000	20.709
482.0000	20.496
481.0000	20.271
480.0000	19.975
479.0000	19.738
478.0000	19.486
477.0000	19.281
476.0000	18.996
475.0000	18.725
474.0000	18.47
473.0000	18.207
472.0000	18.014
471.0000	17.794
470.0000	17.618
469.0000	17.443
468.0000	17.301
467.0000	17.171
466.0000	17.118
465.0000	17.079
464.0000	17.005
463.0000	17.021
462.0000	17.014
461.0000	16.954
460.0000	16.976
459.0000	17.039
458.0000	17.049
457.0000	17.035
456.0000	17.046
455.0000	17.043
454.0000	17.041
453.0000	17.058
452.0000	17.001
451.0000	16.961
450.0000	16.918
449.0000	16.928
448.0000	16.872
447.0000	16.762
446.0000	16.684
445.0000	16.598
444.0000	16.549
443.0000	16.423
442.0000	16.362
441.0000	16.25
440.0000	16.189
439.0000	16.13
438.0000	16.055
437.0000	16.054
436.0000	15.991
435.0000	15.975
434.0000	15.902
433.0000	15.93
432.0000	15.911
431.0000	15.945
430.0000	16.014
429.0000	16.041
428.0000	16.127
427.0000	16.186
426.0000	16.324
425.0000	16.399
424.0000	16.624
423.0000	16.777
422.0000	17.12
421.0000	17.289
420.0000	17.1
419.0000	17.147
418.0000	17.21
417.0000	17.2
416.0000	17.326
415.0000	17.591
414.0000	17.794
413.0000	18.004
412.0000	18.174
411.0000	18.316
410.0000	18.439
409.0000	18.742
408.0000	18.982
407.0000	19.157
406.0000	19.398
405.0000	19.785
404.0000	20.271
403.0000	20.829
402.0000	21.366
401.0000	21.526
400.0000	21.808
