TITLE	
DATA TYPE	
ORIGIN	JASCO
OWNER	
DATE	25/03/18
TIME	17:40:23
SPECTROMETER/DATA SYSTEM	JASCO Corp., V-560, Rev. 1.00
RESOLUTION	
DELTAX	-1
XUNITS	NANOMETERS
YUNITS	TRANSMITTANCE
FIRSTX	800.0000
LASTX	400.0000
NPOINTS	401
FIRSTY	0.76459
MAXY	0.76806
MINY	0.00171
XYDATA
800.0000	76.459
799.0000	76.362
798.0000	76.806
797.0000	76.408
796.0000	76.195
795.0000	76.504
794.0000	76.43
793.0000	76.238
792.0000	76.191
791.0000	76.172
790.0000	76.221
789.0000	76.671
788.0000	76.049
787.0000	76.136
786.0000	76.111
785.0000	75.787
784.0000	75.541
783.0000	75.238
782.0000	75.16
781.0000	74.554
780.0000	74.782
779.0000	75.065
778.0000	74.857
777.0000	75.22
776.0000	75.64
775.0000	75.483
774.0000	75.489
773.0000	75.675
772.0000	75.605
771.0000	75.51
770.0000	75.925
769.0000	75.701
768.0000	75.566
767.0000	76.016
766.0000	75.79
765.0000	75.958
764.0000	75.983
763.0000	75.885
762.0000	75.535
761.0000	75.441
760.0000	75.141
759.0000	75.178
758.0000	75.227
757.0000	75.215
756.0000	75.055
755.0000	74.731
754.0000	75.042
753.0000	75.556
752.0000	75.548
751.0000	75.233
750.0000	75.057
749.0000	74.812
748.0000	74.877
747.0000	75.328
746.0000	74.665
745.0000	74.132
744.0000	74.582
743.0000	75.025
742.0000	74.513
741.0000	75.538
740.0000	75.694
739.0000	75.511
738.0000	75.265
737.0000	74.909
736.0000	74.636
735.0000	75.046
734.0000	75.07
733.0000	75.3
732.0000	75.247
731.0000	74.746
730.0000	74.883
729.0000	74.849
728.0000	74.683
727.0000	74.344
726.0000	74.064
725.0000	73.45
724.0000	73.549
723.0000	74.134
722.0000	73.738
721.0000	74.222
720.0000	74.234
719.0000	74.235
718.0000	74.349
717.0000	74.605
716.0000	74.513
715.0000	73.982
714.0000	73.936
713.0000	73.459
712.0000	73.6
711.0000	73.447
710.0000	73.435
709.0000	73.271
708.0000	73.313
707.0000	73.555
706.0000	73.497
705.0000	73.476
704.0000	72.981
703.0000	72.958
702.0000	72.473
701.0000	72.208
700.0000	71.556
699.0000	71.538
698.0000	71.263
697.0000	70.968
696.0000	70.788
695.0000	70.229
694.0000	70.092
693.0000	69.766
692.0000	69.714
691.0000	69.03
690.0000	68.714
689.0000	68.181
688.0000	67.765
687.0000	67.325
686.0000	66.617
685.0000	66.122
684.0000	65.406
683.0000	64.865
682.0000	64.257
681.0000	63.891
680.0000	63.072
679.0000	62.367
678.0000	61.814
677.0000	61.081
676.0000	60.595
675.0000	59.745
674.0000	58.755
673.0000	57.621
672.0000	56.573
671.0000	55.342
670.0000	54.207
669.0000	52.713
668.0000	51.064
667.0000	49.181
666.0000	47.418
665.0000	45.312
664.0000	43.062
663.0000	40.634
662.0000	37.684
661.0000	34.788
660.0000	31.684
659.0000	28.618
658.0000	25.271
657.0000	22.012
656.0000	18.874
655.0000	15.816
654.0000	13.105
653.0000	10.621
652.0000	8.381
651.0000	6.488
650.0000	4.964
649.0000	3.728
648.0000	2.782
647.0000	2.043
646.0000	1.48
645.0000	1.064
644.0000	0.778
643.0000	0.568
642.0000	0.434
641.0000	0.33
640.0000	0.263
639.0000	0.218
638.0000	0.191
637.0000	0.174
636.0000	0.171
635.0000	0.18
634.0000	0.193
633.0000	0.219
632.0000	0.252
631.0000	0.294
630.0000	0.351
629.0000	0.416
628.0000	0.498
627.0000	0.59
626.0000	0.72
625.0000	0.857
624.0000	0.997
623.0000	1.177
622.0000	1.374
621.0000	1.584
620.0000	1.827
619.0000	2.084
618.0000	2.321
617.0000	2.577
616.0000	2.844
615.0000	3.097
614.0000	3.343
613.0000	3.593
612.0000	3.822
611.0000	4.064
610.0000	4.261
609.0000	4.478
608.0000	4.682
607.0000	4.832
606.0000	4.984
605.0000	5.103
604.0000	5.159
603.0000	5.157
602.0000	5.171
601.0000	5.085
600.0000	4.958
599.0000	4.823
598.0000	4.608
597.0000	4.367
596.0000	4.123
595.0000	3.851
594.0000	3.571
593.0000	3.299
592.0000	3.039
591.0000	2.781
590.0000	2.578
589.0000	2.398
588.0000	2.265
587.0000	2.17
586.0000	2.098
585.0000	2.063
584.0000	2.063
583.0000	2.101
582.0000	2.166
581.0000	2.249
580.0000	2.365
579.0000	2.516
578.0000	2.671
577.0000	2.843
576.0000	3.046
575.0000	3.254
574.0000	3.442
573.0000	3.612
572.0000	3.752
571.0000	3.864
570.0000	3.974
569.0000	4.084
568.0000	4.135
567.0000	4.197
566.0000	4.249
565.0000	4.305
564.0000	4.362
563.0000	4.448
562.0000	4.54
561.0000	4.643
560.0000	4.776
559.0000	4.901
558.0000	5.064
557.0000	5.225
556.0000	5.426
555.0000	5.584
554.0000	5.769
553.0000	5.966
552.0000	6.149
551.0000	6.313
550.0000	6.467
549.0000	6.646
548.0000	6.803
547.0000	6.978
546.0000	7.147
545.0000	7.287
544.0000	7.498
543.0000	7.688
542.0000	7.895
541.0000	8.134
540.0000	8.364
539.0000	8.643
538.0000	8.965
537.0000	9.247
536.0000	9.517
535.0000	9.824
534.0000	10.137
533.0000	10.377
532.0000	10.596
531.0000	10.789
530.0000	10.902
529.0000	11.06
528.0000	11.136
527.0000	11.21
526.0000	11.304
525.0000	11.404
524.0000	11.626
523.0000	11.833
522.0000	12.116
521.0000	12.325
520.0000	12.716
519.0000	12.808
518.0000	12.925
517.0000	13.078
516.0000	13.332
515.0000	13.589
514.0000	13.867
513.0000	14.193
512.0000	14.521
511.0000	14.823
510.0000	15.082
509.0000	15.323
508.0000	15.656
507.0000	15.92
506.0000	16.179
505.0000	16.449
504.0000	16.688
503.0000	16.957
502.0000	17.29
501.0000	17.655
500.0000	17.88
499.0000	18.139
498.0000	18.38
497.0000	18.578
496.0000	18.699
495.0000	18.815
494.0000	18.845
493.0000	18.859
492.0000	18.813
491.0000	18.781
490.0000	18.698
489.0000	18.544
488.0000	18.458
487.0000	18.328
486.0000	18.196
485.0000	17.954
484.0000	17.804
483.0000	17.618
482.0000	17.436
481.0000	17.265
480.0000	17.043
479.0000	16.851
478.0000	16.629
477.0000	16.463
476.0000	16.203
475.0000	15.985
474.0000	15.736
473.0000	15.505
472.0000	15.352
471.0000	15.21
470.0000	15.109
469.0000	14.994
468.0000	14.98
467.0000	14.938
466.0000	14.977
465.0000	15.029
464.0000	15.049
463.0000	15.075
462.0000	15.039
461.0000	15.103
460.0000	15.119
459.0000	15.134
458.0000	15.135
457.0000	15.206
456.0000	15.267
455.0000	15.304
454.0000	15.379
453.0000	15.389
452.0000	15.415
451.0000	15.408
450.0000	15.408
449.0000	15.364
448.0000	15.297
447.0000	15.22
446.0000	15.156
445.0000	15.081
444.0000	15.028
443.0000	14.983
442.0000	14.923
441.0000	14.836
440.0000	14.773
439.0000	14.72
438.0000	14.636
437.0000	14.628
436.0000	14.58
435.0000	14.571
434.0000	14.577
433.0000	14.561
432.0000	14.612
431.0000	14.646
430.0000	14.731
429.0000	14.83
428.0000	14.919
427.0000	14.998
426.0000	15.12
425.0000	15.279
424.0000	15.45
423.0000	15.612
422.0000	15.821
421.0000	15.97
420.0000	16.108
419.0000	16.07
418.0000	16.141
417.0000	16.097
416.0000	16.212
415.0000	16.397
414.0000	16.62
413.0000	16.875
412.0000	17.128
411.0000	17.455
410.0000	17.688
409.0000	18.049
408.0000	18.34
407.0000	18.573
406.0000	18.848
405.0000	19.121
404.0000	19.499
403.0000	19.887
402.0000	20.348
401.0000	20.794
400.0000	21.131
