TITLE	
DATA TYPE	
ORIGIN	JASCO
OWNER	
DATE	25/03/18
TIME	17:34:00
SPECTROMETER/DATA SYSTEM	JASCO Corp., V-560, Rev. 1.00
RESOLUTION	
DELTAX	-1
XUNITS	NANOMETERS
YUNITS	TRANSMITTANCE
FIRSTX	800.0000
LASTX	400.0000
NPOINTS	401
FIRSTY	0.77224
MAXY	0.77820
MINY	0.00607
XYDATA
800.0000	77.224
799.0000	77.201
798.0000	77.537
797.0000	77.734
796.0000	77.512
795.0000	77.82
794.0000	77.508
793.0000	76.609
792.0000	75.945
791.0000	75.911
790.0000	75.864
789.0000	75.891
788.0000	75.634
787.0000	75.625
786.0000	75.837
785.0000	76.032
784.0000	76.082
783.0000	75.72
782.0000	75.479
781.0000	74.898
780.0000	75.328
779.0000	75.573
778.0000	75
777.0000	75.139
776.0000	75.621
775.0000	75.78
774.0000	76.294
773.0000	76.288
772.0000	75.729
771.0000	75.419
770.0000	75.929
769.0000	75.425
768.0000	75.007
767.0000	75.184
766.0000	74.969
765.0000	74.953
764.0000	75.019
763.0000	75.293
762.0000	75.25
761.0000	75.469
760.0000	75.47
759.0000	75.601
758.0000	75.486
757.0000	75.723
756.0000	75.888
755.0000	75.271
754.0000	75.485
753.0000	75.51
752.0000	75.381
751.0000	74.653
750.0000	74.89
749.0000	74.724
748.0000	74.48
747.0000	74.96
746.0000	74.386
745.0000	74.448
744.0000	74.859
743.0000	74.285
742.0000	74.299
741.0000	74.682
740.0000	75.048
739.0000	75.125
738.0000	74.888
737.0000	74.872
736.0000	74.573
735.0000	74.764
734.0000	75.287
733.0000	75.541
732.0000	75.269
731.0000	74.823
730.0000	74.873
729.0000	74.789
728.0000	74.851
727.0000	74.303
726.0000	73.899
725.0000	73.671
724.0000	73.751
723.0000	74.157
722.0000	73.853
721.0000	74.282
720.0000	74.255
719.0000	74.35
718.0000	74.25
717.0000	73.92
716.0000	73.906
715.0000	73.537
714.0000	73.941
713.0000	73.554
712.0000	73.668
711.0000	73.538
710.0000	73.901
709.0000	73.869
708.0000	73.593
707.0000	73.51
706.0000	73.213
705.0000	73.098
704.0000	72.728
703.0000	72.733
702.0000	72.268
701.0000	72.171
700.0000	71.993
699.0000	72.124
698.0000	71.769
697.0000	71.523
696.0000	71.29
695.0000	70.748
694.0000	70.536
693.0000	70.218
692.0000	70.289
691.0000	69.887
690.0000	69.783
689.0000	69.655
688.0000	69.446
687.0000	69.166
686.0000	68.8
685.0000	68.528
684.0000	67.884
683.0000	67.491
682.0000	67.178
681.0000	66.849
680.0000	66.229
679.0000	65.862
678.0000	65.465
677.0000	65.047
676.0000	64.788
675.0000	64.277
674.0000	63.508
673.0000	62.599
672.0000	61.944
671.0000	61.098
670.0000	60.119
669.0000	59.223
668.0000	58.017
667.0000	56.476
666.0000	55.303
665.0000	53.789
664.0000	51.88
663.0000	49.816
662.0000	47.526
661.0000	44.886
660.0000	41.945
659.0000	39.118
658.0000	35.626
657.0000	32.261
656.0000	28.951
655.0000	25.483
654.0000	22.036
653.0000	18.678
652.0000	15.716
651.0000	12.871
650.0000	10.473
649.0000	8.374
648.0000	6.566
647.0000	5.115
646.0000	3.971
645.0000	3.066
644.0000	2.347
643.0000	1.801
642.0000	1.391
641.0000	1.113
640.0000	0.904
639.0000	0.779
638.0000	0.698
637.0000	0.629
636.0000	0.607
635.0000	0.613
634.0000	0.644
633.0000	0.706
632.0000	0.787
631.0000	0.899
630.0000	1.011
629.0000	1.174
628.0000	1.348
627.0000	1.557
626.0000	1.807
625.0000	2.065
624.0000	2.389
623.0000	2.724
622.0000	3.081
621.0000	3.463
620.0000	3.888
619.0000	4.315
618.0000	4.75
617.0000	5.203
616.0000	5.612
615.0000	6.035
614.0000	6.472
613.0000	6.874
612.0000	7.268
611.0000	7.69
610.0000	8.08
609.0000	8.464
608.0000	8.832
607.0000	9.13
606.0000	9.405
605.0000	9.643
604.0000	9.852
603.0000	9.956
602.0000	9.976
601.0000	9.911
600.0000	9.758
599.0000	9.564
598.0000	9.244
597.0000	8.886
596.0000	8.435
595.0000	7.978
594.0000	7.559
593.0000	7.113
592.0000	6.701
591.0000	6.272
590.0000	5.937
589.0000	5.621
588.0000	5.402
587.0000	5.206
586.0000	5.006
585.0000	4.944
584.0000	4.891
583.0000	4.955
582.0000	5.069
581.0000	5.269
580.0000	5.487
579.0000	5.762
578.0000	6.081
577.0000	6.367
576.0000	6.725
575.0000	7.077
574.0000	7.423
573.0000	7.715
572.0000	7.972
571.0000	8.163
570.0000	8.328
569.0000	8.487
568.0000	8.579
567.0000	8.614
566.0000	8.619
565.0000	8.642
564.0000	8.68
563.0000	8.756
562.0000	8.866
561.0000	8.992
560.0000	9.13
559.0000	9.359
558.0000	9.622
557.0000	9.837
556.0000	10.084
555.0000	10.331
554.0000	10.553
553.0000	10.749
552.0000	11.016
551.0000	11.222
550.0000	11.404
549.0000	11.613
548.0000	11.831
547.0000	12.096
546.0000	12.328
545.0000	12.579
544.0000	12.838
543.0000	13.086
542.0000	13.395
541.0000	13.777
540.0000	14.112
539.0000	14.436
538.0000	14.914
537.0000	15.346
536.0000	15.772
535.0000	16.215
534.0000	16.593
533.0000	16.947
532.0000	17.252
531.0000	17.544
530.0000	17.747
529.0000	18.013
528.0000	18.191
527.0000	18.292
526.0000	18.44
525.0000	18.552
524.0000	18.822
523.0000	19.01
522.0000	19.316
521.0000	19.679
520.0000	20.129
519.0000	20.187
518.0000	20.259
517.0000	20.453
516.0000	20.785
515.0000	21.145
514.0000	21.494
513.0000	21.891
512.0000	22.29
511.0000	22.601
510.0000	22.902
509.0000	23.212
508.0000	23.481
507.0000	23.703
506.0000	23.887
505.0000	24.058
504.0000	24.258
503.0000	24.523
502.0000	24.874
501.0000	25.088
500.0000	25.215
499.0000	25.388
498.0000	25.626
497.0000	25.803
496.0000	25.906
495.0000	25.947
494.0000	25.833
493.0000	25.779
492.0000	25.661
491.0000	25.518
490.0000	25.242
489.0000	24.93
488.0000	24.631
487.0000	24.323
486.0000	23.997
485.0000	23.656
484.0000	23.402
483.0000	23.154
482.0000	22.837
481.0000	22.56
480.0000	22.279
479.0000	22.027
478.0000	21.731
477.0000	21.408
476.0000	21.095
475.0000	20.798
474.0000	20.55
473.0000	20.279
472.0000	20.042
471.0000	19.799
470.0000	19.624
469.0000	19.465
468.0000	19.374
467.0000	19.175
466.0000	19.086
465.0000	19.021
464.0000	19.001
463.0000	19.023
462.0000	19.024
461.0000	18.999
460.0000	18.983
459.0000	19.022
458.0000	19.043
457.0000	19.016
456.0000	18.95
455.0000	18.899
454.0000	18.88
453.0000	18.863
452.0000	18.764
451.0000	18.716
450.0000	18.586
449.0000	18.545
448.0000	18.526
447.0000	18.401
446.0000	18.284
445.0000	18.184
444.0000	18.089
443.0000	17.923
442.0000	17.818
441.0000	17.73
440.0000	17.564
439.0000	17.442
438.0000	17.316
437.0000	17.307
436.0000	17.231
435.0000	17.232
434.0000	17.21
433.0000	17.188
432.0000	17.249
431.0000	17.335
430.0000	17.398
429.0000	17.353
428.0000	17.428
427.0000	17.51
426.0000	17.658
425.0000	17.704
424.0000	17.817
423.0000	18.08
422.0000	18.311
421.0000	18.473
420.0000	18.697
419.0000	18.633
418.0000	18.707
417.0000	18.752
416.0000	18.854
415.0000	19.059
414.0000	19.245
413.0000	19.433
412.0000	19.568
411.0000	19.846
410.0000	20.033
409.0000	20.261
408.0000	20.478
407.0000	20.611
406.0000	20.826
405.0000	21.171
404.0000	21.804
403.0000	22.276
402.0000	22.932
401.0000	23.275
400.0000	23.551
