TITLE	
DATA TYPE	
ORIGIN	JASCO
OWNER	
DATE	25/03/18
TIME	17:08:18
SPECTROMETER/DATA SYSTEM	JASCO Corp., V-560, Rev. 1.00
RESOLUTION	
DELTAX	-1
XUNITS	NANOMETERS
YUNITS	TRANSMITTANCE
FIRSTX	800.0000
LASTX	400.0000
NPOINTS	401
FIRSTY	0.79791
MAXY	0.80107
MINY	0.26329
XYDATA
800.0000	79.791
799.0000	79.485
798.0000	80.107
797.0000	79.358
796.0000	78.798
795.0000	79.104
794.0000	79.031
793.0000	78.792
792.0000	78.439
791.0000	78.634
790.0000	78.243
789.0000	78.675
788.0000	79.054
787.0000	79.752
786.0000	79.293
785.0000	79.171
784.0000	79.231
783.0000	78.503
782.0000	78.522
781.0000	78.21
780.0000	78.087
779.0000	78.267
778.0000	79.039
777.0000	79.268
776.0000	79.155
775.0000	79.191
774.0000	79.646
773.0000	79.513
772.0000	79.464
771.0000	79.011
770.0000	78.894
769.0000	78.838
768.0000	78.609
767.0000	79.141
766.0000	78.928
765.0000	79.395
764.0000	79.155
763.0000	79.331
762.0000	79.484
761.0000	79.358
760.0000	79.663
759.0000	79.642
758.0000	79.77
757.0000	79.749
756.0000	79.801
755.0000	79.168
754.0000	79.162
753.0000	79.487
752.0000	79.012
751.0000	78.59
750.0000	78.537
749.0000	78.477
748.0000	78.594
747.0000	79.185
746.0000	78.793
745.0000	78.614
744.0000	79.058
743.0000	78.572
742.0000	78.522
741.0000	78.708
740.0000	78.902
739.0000	78.858
738.0000	78.811
737.0000	79.033
736.0000	78.683
735.0000	78.724
734.0000	79.023
733.0000	79.293
732.0000	79.125
731.0000	78.58
730.0000	78.765
729.0000	78.302
728.0000	78.538
727.0000	78.448
726.0000	78.054
725.0000	77.644
724.0000	77.605
723.0000	78.362
722.0000	78.007
721.0000	78.345
720.0000	78.359
719.0000	78.52
718.0000	78.682
717.0000	78.857
716.0000	79.28
715.0000	79.064
714.0000	79.235
713.0000	79.22
712.0000	79.392
711.0000	79.436
710.0000	79.546
709.0000	79.322
708.0000	79.113
707.0000	79.308
706.0000	79.15
705.0000	79.164
704.0000	78.798
703.0000	78.88
702.0000	78.713
701.0000	78.715
700.0000	78.639
699.0000	78.748
698.0000	78.882
697.0000	78.894
696.0000	78.922
695.0000	78.381
694.0000	78.413
693.0000	78.501
692.0000	78.874
691.0000	78.663
690.0000	78.67
689.0000	78.492
688.0000	78.33
687.0000	78.389
686.0000	78.229
685.0000	77.999
684.0000	77.573
683.0000	77.617
682.0000	77.636
681.0000	77.933
680.0000	77.884
679.0000	77.911
678.0000	77.753
677.0000	77.847
676.0000	77.964
675.0000	77.869
674.0000	77.85
673.0000	77.408
672.0000	77.49
671.0000	77.438
670.0000	77.695
669.0000	77.898
668.0000	77.984
667.0000	77.804
666.0000	77.851
665.0000	78.102
664.0000	78.029
663.0000	78.118
662.0000	77.917
661.0000	77.679
660.0000	77.353
659.0000	77.256
658.0000	76.79
657.0000	76.435
656.0000	76.206
655.0000	75.617
654.0000	75.131
653.0000	74.601
652.0000	74.01
651.0000	73.146
650.0000	72.356
649.0000	71.423
648.0000	70.141
647.0000	69.147
646.0000	67.941
645.0000	66.47
644.0000	65.056
643.0000	63.593
642.0000	62.053
641.0000	60.549
640.0000	59.385
639.0000	58.314
638.0000	57.321
637.0000	56.538
636.0000	56.15
635.0000	55.97
634.0000	56.035
633.0000	56.366
632.0000	56.92
631.0000	57.458
630.0000	58.37
629.0000	59.295
628.0000	60.185
627.0000	61.04
626.0000	62.036
625.0000	62.933
624.0000	63.662
623.0000	64.54
622.0000	64.988
621.0000	65.865
620.0000	66.496
619.0000	67.25
618.0000	67.755
617.0000	68.26
616.0000	68.703
615.0000	68.95
614.0000	69.473
613.0000	69.623
612.0000	69.915
611.0000	70.137
610.0000	70.404
609.0000	70.626
608.0000	70.72
607.0000	70.777
606.0000	71.106
605.0000	71.123
604.0000	71.086
603.0000	71.149
602.0000	71.125
601.0000	70.986
600.0000	70.996
599.0000	71.035
598.0000	70.535
597.0000	70.416
596.0000	70.262
595.0000	69.866
594.0000	69.505
593.0000	69.154
592.0000	68.726
591.0000	68.262
590.0000	68.057
589.0000	67.74
588.0000	67.429
587.0000	67.22
586.0000	67.041
585.0000	67.103
584.0000	66.952
583.0000	66.747
582.0000	66.742
581.0000	66.855
580.0000	66.943
579.0000	67.195
578.0000	67.256
577.0000	67.204
576.0000	67.623
575.0000	68.011
574.0000	68.189
573.0000	68.03
572.0000	68.06
571.0000	67.831
570.0000	67.863
569.0000	68.015
568.0000	67.887
567.0000	67.772
566.0000	67.599
565.0000	67.53
564.0000	67.248
563.0000	67.052
562.0000	66.869
561.0000	66.523
560.0000	66.062
559.0000	65.735
558.0000	65.5
557.0000	65.18
556.0000	65.003
555.0000	64.802
554.0000	64.592
553.0000	64.466
552.0000	64.465
551.0000	64.208
550.0000	63.923
549.0000	63.887
548.0000	63.893
547.0000	63.983
546.0000	63.933
545.0000	63.807
544.0000	63.839
543.0000	64.082
542.0000	64.292
541.0000	64.489
540.0000	64.606
539.0000	64.649
538.0000	64.933
537.0000	65.095
536.0000	65.243
535.0000	65.432
534.0000	65.56
533.0000	65.65
532.0000	65.787
531.0000	65.902
530.0000	65.898
529.0000	66.031
528.0000	66.117
527.0000	66.107
526.0000	66.167
525.0000	66.202
524.0000	66.094
523.0000	65.951
522.0000	65.795
521.0000	65.743
520.0000	65.673
519.0000	65.517
518.0000	65.473
517.0000	65.588
516.0000	65.371
515.0000	65.294
514.0000	65.211
513.0000	65.022
512.0000	64.976
511.0000	65.02
510.0000	64.613
509.0000	64.341
508.0000	64.246
507.0000	63.923
506.0000	63.609
505.0000	63.327
504.0000	63.068
503.0000	62.83
502.0000	62.569
501.0000	62.159
500.0000	61.728
499.0000	61.209
498.0000	60.704
497.0000	60.141
496.0000	59.451
495.0000	58.686
494.0000	57.926
493.0000	57.206
492.0000	56.261
491.0000	55.384
490.0000	54.426
489.0000	53.38
488.0000	52.456
487.0000	51.33
486.0000	50.323
485.0000	49.233
484.0000	48.231
483.0000	47.328
482.0000	46.265
481.0000	45.297
480.0000	44.299
479.0000	43.403
478.0000	42.445
477.0000	41.63
476.0000	40.768
475.0000	39.812
474.0000	39.1
473.0000	38.325
472.0000	37.642
471.0000	37.01
470.0000	36.427
469.0000	35.823
468.0000	35.371
467.0000	34.91
466.0000	34.492
465.0000	34.118
464.0000	33.726
463.0000	33.441
462.0000	33.161
461.0000	32.877
460.0000	32.622
459.0000	32.422
458.0000	32.247
457.0000	32.114
456.0000	31.928
455.0000	31.706
454.0000	31.518
453.0000	31.337
452.0000	31.119
451.0000	30.909
450.0000	30.604
449.0000	30.355
448.0000	30.048
447.0000	29.712
446.0000	29.421
445.0000	29.125
444.0000	28.85
443.0000	28.533
442.0000	28.241
441.0000	27.887
440.0000	27.654
439.0000	27.382
438.0000	27.157
437.0000	26.956
436.0000	26.727
435.0000	26.505
434.0000	26.394
433.0000	26.36
432.0000	26.329
431.0000	26.383
430.0000	26.404
429.0000	26.388
428.0000	26.439
427.0000	26.57
426.0000	26.702
425.0000	26.727
424.0000	26.777
423.0000	26.864
422.0000	27.053
421.0000	27.155
420.0000	27.321
419.0000	27.34
418.0000	27.507
417.0000	27.509
416.0000	27.733
415.0000	27.871
414.0000	28.069
413.0000	28.305
412.0000	28.499
411.0000	28.685
410.0000	28.862
409.0000	29.135
408.0000	29.392
407.0000	29.753
406.0000	30.024
405.0000	30.491
404.0000	31.218
403.0000	31.734
402.0000	32.385
401.0000	32.91
400.0000	33.264
