TITLE	
DATA TYPE	
ORIGIN	JASCO
OWNER	
DATE	25/03/18
TIME	17:28:04
SPECTROMETER/DATA SYSTEM	JASCO Corp., V-560, Rev. 1.00
RESOLUTION	
DELTAX	-1
XUNITS	NANOMETERS
YUNITS	TRANSMITTANCE
FIRSTX	800.0000
LASTX	400.0000
NPOINTS	401
FIRSTY	0.78065
MAXY	0.79428
MINY	0.03644
XYDATA
800.0000	78.065
799.0000	78.2
798.0000	78.283
797.0000	77.894
796.0000	78.241
795.0000	78.626
794.0000	78.686
793.0000	78.595
792.0000	78.853
791.0000	78.644
790.0000	78.958
789.0000	79.295
788.0000	79.067
787.0000	79.428
786.0000	78.843
785.0000	78.411
784.0000	78.12
783.0000	77.837
782.0000	77.277
781.0000	77.051
780.0000	76.777
779.0000	76.748
778.0000	77.318
777.0000	77.728
776.0000	77.649
775.0000	77.923
774.0000	78.224
773.0000	78.094
772.0000	78.253
771.0000	77.897
770.0000	77.823
769.0000	77.477
768.0000	77.542
767.0000	77.719
766.0000	77.432
765.0000	77.483
764.0000	77.165
763.0000	77.48
762.0000	77.18
761.0000	77.161
760.0000	77.296
759.0000	77.109
758.0000	77.23
757.0000	77.474
756.0000	77.792
755.0000	77.449
754.0000	77.928
753.0000	78.24
752.0000	78.059
751.0000	77.918
750.0000	78.006
749.0000	78.012
748.0000	77.935
747.0000	78.154
746.0000	77.982
745.0000	77.782
744.0000	77.4
743.0000	76.865
742.0000	77.017
741.0000	77.4
740.0000	77.445
739.0000	77.204
738.0000	77.16
737.0000	76.858
736.0000	76.653
735.0000	77.375
734.0000	77.7
733.0000	77.977
732.0000	77.79
731.0000	77.651
730.0000	78.001
729.0000	77.931
728.0000	77.845
727.0000	77.149
726.0000	77.272
725.0000	77.029
724.0000	76.903
723.0000	77.184
722.0000	76.656
721.0000	76.802
720.0000	76.903
719.0000	76.894
718.0000	76.699
717.0000	76.691
716.0000	76.896
715.0000	76.542
714.0000	76.863
713.0000	76.907
712.0000	77.086
711.0000	77.213
710.0000	77.179
709.0000	77.263
708.0000	77.278
707.0000	77.328
706.0000	77.329
705.0000	77.042
704.0000	76.847
703.0000	76.831
702.0000	76.706
701.0000	76.664
700.0000	76.425
699.0000	76.79
698.0000	76.408
697.0000	76.38
696.0000	76.204
695.0000	75.868
694.0000	75.961
693.0000	75.466
692.0000	75.509
691.0000	75.195
690.0000	75.255
689.0000	75.173
688.0000	74.967
687.0000	75.012
686.0000	74.688
685.0000	74.801
684.0000	74.477
683.0000	74.084
682.0000	73.771
681.0000	73.688
680.0000	73.366
679.0000	72.816
678.0000	72.447
677.0000	72.136
676.0000	72.216
675.0000	72.022
674.0000	71.709
673.0000	71.095
672.0000	70.943
671.0000	70.678
670.0000	70.473
669.0000	69.996
668.0000	69.25
667.0000	68.394
666.0000	67.579
665.0000	67
664.0000	65.723
663.0000	64.641
662.0000	63.053
661.0000	61.271
660.0000	59.195
659.0000	57.044
658.0000	54.417
657.0000	51.289
656.0000	48.272
655.0000	44.585
654.0000	40.785
653.0000	36.98
652.0000	33.088
651.0000	29.142
650.0000	25.425
649.0000	21.932
648.0000	18.607
647.0000	15.77
646.0000	13.275
645.0000	11.026
644.0000	9.249
643.0000	7.74
642.0000	6.519
641.0000	5.565
640.0000	4.862
639.0000	4.339
638.0000	3.981
637.0000	3.756
636.0000	3.644
635.0000	3.68
634.0000	3.837
633.0000	4.106
632.0000	4.446
631.0000	4.897
630.0000	5.412
629.0000	6.052
628.0000	6.759
627.0000	7.526
626.0000	8.369
625.0000	9.281
624.0000	10.253
623.0000	11.284
622.0000	12.344
621.0000	13.485
620.0000	14.635
619.0000	15.838
618.0000	17.071
617.0000	18.268
616.0000	19.401
615.0000	20.481
614.0000	21.61
613.0000	22.535
612.0000	23.48
611.0000	24.307
610.0000	24.993
609.0000	25.705
608.0000	26.371
607.0000	26.888
606.0000	27.324
605.0000	27.657
604.0000	27.892
603.0000	27.987
602.0000	27.992
601.0000	27.804
600.0000	27.387
599.0000	26.816
598.0000	26.119
597.0000	25.304
596.0000	24.408
595.0000	23.485
594.0000	22.474
593.0000	21.414
592.0000	20.514
591.0000	19.692
590.0000	18.894
589.0000	18.23
588.0000	17.617
587.0000	17.111
586.0000	16.726
585.0000	16.554
584.0000	16.432
583.0000	16.458
582.0000	16.606
581.0000	16.902
580.0000	17.267
579.0000	17.727
578.0000	18.218
577.0000	18.754
576.0000	19.373
575.0000	20.003
574.0000	20.546
573.0000	21.075
572.0000	21.527
571.0000	21.873
570.0000	22.233
569.0000	22.463
568.0000	22.522
567.0000	22.539
566.0000	22.537
565.0000	22.467
564.0000	22.424
563.0000	22.458
562.0000	22.492
561.0000	22.626
560.0000	22.759
559.0000	22.987
558.0000	23.276
557.0000	23.633
556.0000	24.036
555.0000	24.456
554.0000	24.881
553.0000	25.289
552.0000	25.761
551.0000	26.167
550.0000	26.588
549.0000	26.968
548.0000	27.377
547.0000	27.806
546.0000	28.251
545.0000	28.615
544.0000	29.046
543.0000	29.466
542.0000	29.863
541.0000	30.335
540.0000	30.788
539.0000	31.184
538.0000	31.69
537.0000	32.199
536.0000	32.696
535.0000	33.22
534.0000	33.777
533.0000	34.322
532.0000	34.736
531.0000	35.138
530.0000	35.468
529.0000	35.86
528.0000	36.102
527.0000	36.334
526.0000	36.495
525.0000	36.557
524.0000	36.9
523.0000	36.939
522.0000	37.125
521.0000	37.46
520.0000	37.896
519.0000	37.917
518.0000	38.009
517.0000	38.205
516.0000	38.39
515.0000	38.707
514.0000	38.908
513.0000	39.215
512.0000	39.509
511.0000	39.77
510.0000	39.894
509.0000	40.097
508.0000	40.369
507.0000	40.427
506.0000	40.505
505.0000	40.636
504.0000	40.717
503.0000	40.865
502.0000	41.003
501.0000	40.996
500.0000	40.888
499.0000	40.889
498.0000	40.865
497.0000	40.69
496.0000	40.463
495.0000	40.224
494.0000	39.913
493.0000	39.662
492.0000	39.366
491.0000	39.017
490.0000	38.594
489.0000	38.103
488.0000	37.587
487.0000	37.05
486.0000	36.477
485.0000	35.877
484.0000	35.28
483.0000	34.669
482.0000	33.99
481.0000	33.413
480.0000	32.843
479.0000	32.303
478.0000	31.774
477.0000	31.197
476.0000	30.671
475.0000	30.153
474.0000	29.72
473.0000	29.23
472.0000	28.803
471.0000	28.406
470.0000	27.986
469.0000	27.677
468.0000	27.371
467.0000	27.076
466.0000	26.809
465.0000	26.695
464.0000	26.566
463.0000	26.369
462.0000	26.273
461.0000	26.111
460.0000	26.032
459.0000	25.886
458.0000	25.823
457.0000	25.657
456.0000	25.548
455.0000	25.481
454.0000	25.355
453.0000	25.25
452.0000	25.082
451.0000	24.98
450.0000	24.845
449.0000	24.711
448.0000	24.493
447.0000	24.251
446.0000	24.062
445.0000	23.855
444.0000	23.665
443.0000	23.475
442.0000	23.279
441.0000	23.079
440.0000	22.893
439.0000	22.779
438.0000	22.629
437.0000	22.55
436.0000	22.417
435.0000	22.321
434.0000	22.178
433.0000	22.174
432.0000	22.171
431.0000	22.146
430.0000	22.169
429.0000	22.167
428.0000	22.256
427.0000	22.318
426.0000	22.499
425.0000	22.559
424.0000	22.773
423.0000	22.945
422.0000	23.204
421.0000	23.28
420.0000	23.345
419.0000	23.36
418.0000	23.491
417.0000	23.464
416.0000	23.644
415.0000	23.734
414.0000	23.899
413.0000	24.12
412.0000	24.397
411.0000	24.575
410.0000	24.716
409.0000	25.106
408.0000	25.521
407.0000	25.851
406.0000	26.22
405.0000	26.666
404.0000	27.266
403.0000	27.785
402.0000	28.307
401.0000	28.615
400.0000	28.986
