TITLE	
DATA TYPE	
ORIGIN	JASCO
OWNER	
DATE	25/03/18
TIME	17:30:12
SPECTROMETER/DATA SYSTEM	JASCO Corp., V-560, Rev. 1.00
RESOLUTION	
DELTAX	-1
XUNITS	NANOMETERS
YUNITS	TRANSMITTANCE
FIRSTX	800.0000
LASTX	400.0000
NPOINTS	401
FIRSTY	0.77823
MAXY	0.78547
MINY	0.01866
XYDATA
800.0000	77.823
799.0000	77.424
798.0000	77.976
797.0000	77.701
796.0000	77.637
795.0000	77.771
794.0000	78.021
793.0000	77.804
792.0000	77.511
791.0000	77.718
790.0000	77.178
789.0000	77.574
788.0000	77.594
787.0000	78.284
786.0000	78.264
785.0000	78.173
784.0000	78.547
783.0000	77.673
782.0000	77.895
781.0000	77.449
780.0000	77.27
779.0000	77.526
778.0000	77.478
777.0000	77.669
776.0000	77.429
775.0000	77.544
774.0000	77.32
773.0000	77.007
772.0000	76.958
771.0000	76.297
770.0000	76.139
769.0000	75.946
768.0000	75.722
767.0000	76.157
766.0000	76.48
765.0000	77.284
764.0000	77.36
763.0000	77.41
762.0000	77.421
761.0000	77.21
760.0000	77.282
759.0000	77.429
758.0000	77.508
757.0000	77.347
756.0000	77.607
755.0000	77.336
754.0000	77.256
753.0000	77.467
752.0000	77.021
751.0000	76.004
750.0000	75.84
749.0000	75.478
748.0000	75.217
747.0000	75.573
746.0000	75.545
745.0000	75.378
744.0000	76.627
743.0000	77.022
742.0000	77.279
741.0000	77.753
740.0000	76.815
739.0000	76.619
738.0000	76.689
737.0000	76.813
736.0000	76.463
735.0000	76.644
734.0000	77.207
733.0000	77.397
732.0000	77.138
731.0000	76.793
730.0000	76.897
729.0000	76.564
728.0000	76.555
727.0000	76.083
726.0000	75.885
725.0000	75.425
724.0000	75.556
723.0000	76.111
722.0000	75.741
721.0000	76.062
720.0000	76.234
719.0000	76.484
718.0000	76.481
717.0000	76.588
716.0000	76.621
715.0000	76.302
714.0000	76.398
713.0000	76.224
712.0000	76.435
711.0000	76.577
710.0000	76.67
709.0000	76.602
708.0000	76.444
707.0000	76.295
706.0000	75.837
705.0000	75.883
704.0000	75.356
703.0000	74.96
702.0000	74.643
701.0000	74.706
700.0000	74.512
699.0000	74.747
698.0000	74.932
697.0000	74.71
696.0000	74.764
695.0000	74.64
694.0000	74.645
693.0000	74.473
692.0000	74.392
691.0000	73.953
690.0000	73.731
689.0000	73.575
688.0000	73.288
687.0000	73.142
686.0000	72.919
685.0000	72.774
684.0000	72.461
683.0000	72.278
682.0000	72.057
681.0000	71.844
680.0000	71.369
679.0000	71.027
678.0000	70.431
677.0000	69.881
676.0000	69.801
675.0000	69.433
674.0000	69.181
673.0000	68.55
672.0000	68.109
671.0000	67.485
670.0000	67.006
669.0000	66.406
668.0000	65.332
667.0000	64.282
666.0000	63.122
665.0000	61.962
664.0000	60.748
663.0000	59.138
662.0000	57.281
661.0000	55.066
660.0000	52.742
659.0000	50.13
658.0000	46.962
657.0000	43.654
656.0000	40.143
655.0000	36.408
654.0000	32.48
653.0000	28.687
652.0000	24.904
651.0000	21.257
650.0000	18.006
649.0000	15.031
648.0000	12.399
647.0000	10.149
646.0000	8.318
645.0000	6.735
644.0000	5.48
643.0000	4.483
642.0000	3.687
641.0000	3.08
640.0000	2.625
639.0000	2.318
638.0000	2.092
637.0000	1.928
636.0000	1.866
635.0000	1.872
634.0000	1.967
633.0000	2.127
632.0000	2.366
631.0000	2.638
630.0000	2.992
629.0000	3.441
628.0000	3.929
627.0000	4.468
626.0000	5.063
625.0000	5.713
624.0000	6.415
623.0000	7.192
622.0000	8.001
621.0000	8.825
620.0000	9.692
619.0000	10.578
618.0000	11.494
617.0000	12.41
616.0000	13.238
615.0000	14.029
614.0000	14.826
613.0000	15.589
612.0000	16.311
611.0000	17.009
610.0000	17.636
609.0000	18.182
608.0000	18.806
607.0000	19.271
606.0000	19.626
605.0000	19.865
604.0000	20.032
603.0000	20.08
602.0000	19.979
601.0000	19.816
600.0000	19.426
599.0000	18.925
598.0000	18.339
597.0000	17.691
596.0000	16.955
595.0000	16.158
594.0000	15.384
593.0000	14.525
592.0000	13.757
591.0000	13.084
590.0000	12.454
589.0000	11.867
588.0000	11.393
587.0000	10.988
586.0000	10.675
585.0000	10.497
584.0000	10.366
583.0000	10.365
582.0000	10.48
581.0000	10.719
580.0000	10.985
579.0000	11.362
578.0000	11.787
577.0000	12.213
576.0000	12.698
575.0000	13.162
574.0000	13.568
573.0000	13.922
572.0000	14.28
571.0000	14.536
570.0000	14.723
569.0000	14.906
568.0000	14.992
567.0000	15.028
566.0000	15.051
565.0000	15.064
564.0000	15.086
563.0000	15.137
562.0000	15.248
561.0000	15.452
560.0000	15.659
559.0000	15.948
558.0000	16.29
557.0000	16.665
556.0000	17.067
555.0000	17.452
554.0000	17.838
553.0000	18.241
552.0000	18.672
551.0000	19.049
550.0000	19.429
549.0000	19.837
548.0000	20.193
547.0000	20.603
546.0000	20.96
545.0000	21.243
544.0000	21.619
543.0000	22.068
542.0000	22.415
541.0000	22.802
540.0000	23.28
539.0000	23.732
538.0000	24.313
537.0000	24.892
536.0000	25.428
535.0000	25.889
534.0000	26.47
533.0000	26.925
532.0000	27.338
531.0000	27.798
530.0000	28.12
529.0000	28.431
528.0000	28.666
527.0000	28.843
526.0000	28.994
525.0000	29.181
524.0000	29.372
523.0000	29.438
522.0000	29.648
521.0000	29.945
520.0000	30.454
519.0000	30.53
518.0000	30.603
517.0000	30.812
516.0000	31.079
515.0000	31.387
514.0000	31.635
513.0000	31.965
512.0000	32.291
511.0000	32.561
510.0000	32.752
509.0000	32.842
508.0000	33.074
507.0000	33.174
506.0000	33.34
505.0000	33.482
504.0000	33.707
503.0000	33.89
502.0000	34.14
501.0000	34.374
500.0000	34.571
499.0000	34.658
498.0000	34.739
497.0000	34.765
496.0000	34.669
495.0000	34.574
494.0000	34.352
493.0000	34.172
492.0000	33.838
491.0000	33.659
490.0000	33.336
489.0000	32.978
488.0000	32.583
487.0000	32.195
486.0000	31.78
485.0000	31.319
484.0000	30.922
483.0000	30.418
482.0000	29.977
481.0000	29.504
480.0000	29.091
479.0000	28.651
478.0000	28.214
477.0000	27.718
476.0000	27.247
475.0000	26.827
474.0000	26.419
473.0000	26.024
472.0000	25.638
471.0000	25.296
470.0000	24.99
469.0000	24.792
468.0000	24.542
467.0000	24.296
466.0000	24.151
465.0000	24.03
464.0000	23.895
463.0000	23.795
462.0000	23.697
461.0000	23.599
460.0000	23.483
459.0000	23.461
458.0000	23.372
457.0000	23.261
456.0000	23.238
455.0000	23.097
454.0000	23.059
453.0000	22.999
452.0000	22.981
451.0000	22.827
450.0000	22.68
449.0000	22.601
448.0000	22.46
447.0000	22.33
446.0000	22.16
445.0000	21.939
444.0000	21.781
443.0000	21.664
442.0000	21.489
441.0000	21.279
440.0000	21.112
439.0000	20.987
438.0000	20.865
437.0000	20.811
436.0000	20.668
435.0000	20.563
434.0000	20.534
433.0000	20.566
432.0000	20.568
431.0000	20.599
430.0000	20.653
429.0000	20.72
428.0000	20.808
427.0000	20.867
426.0000	21.005
425.0000	21.082
424.0000	21.299
423.0000	21.38
422.0000	21.618
421.0000	21.804
420.0000	21.958
419.0000	21.871
418.0000	21.895
417.0000	21.913
416.0000	22.064
415.0000	22.249
414.0000	22.397
413.0000	22.682
412.0000	22.944
411.0000	23.279
410.0000	23.503
409.0000	23.794
408.0000	24.123
407.0000	24.357
406.0000	24.613
405.0000	24.87
404.0000	25.34
403.0000	25.847
402.0000	26.406
401.0000	26.741
400.0000	27.109
