TITLE	
DATA TYPE	
ORIGIN	JASCO
OWNER	
DATE	25/03/18
TIME	17:42:35
SPECTROMETER/DATA SYSTEM	JASCO Corp., V-560, Rev. 1.00
RESOLUTION	
DELTAX	-1
XUNITS	NANOMETERS
YUNITS	TRANSMITTANCE
FIRSTX	800.0000
LASTX	400.0000
NPOINTS	401
FIRSTY	0.77138
MAXY	0.77514
MINY	0.00119
XYDATA
800.0000	77.138
799.0000	77.436
798.0000	77.26
797.0000	76.889
796.0000	76.514
795.0000	76.617
794.0000	76.804
793.0000	76.639
792.0000	76.414
791.0000	75.888
790.0000	76.145
789.0000	76.103
788.0000	76.604
787.0000	77.458
786.0000	77.514
785.0000	76.815
784.0000	76.492
783.0000	76.565
782.0000	76.443
781.0000	76.293
780.0000	75.873
779.0000	75.864
778.0000	75.563
777.0000	76.358
776.0000	76.631
775.0000	76.741
774.0000	76.956
773.0000	76.971
772.0000	77.014
771.0000	76.942
770.0000	77.095
769.0000	76.721
768.0000	76.545
767.0000	76.592
766.0000	76.269
765.0000	76.393
764.0000	76.48
763.0000	76.286
762.0000	76.15
761.0000	76.022
760.0000	76.291
759.0000	76.684
758.0000	76.706
757.0000	76.788
756.0000	76.548
755.0000	76.371
754.0000	76.612
753.0000	76.962
752.0000	76.396
751.0000	75.465
750.0000	75.841
749.0000	75.711
748.0000	76.067
747.0000	76.127
746.0000	75.882
745.0000	75.635
744.0000	76.295
743.0000	75.563
742.0000	75.778
741.0000	76.335
740.0000	75.648
739.0000	75.3
738.0000	75.142
737.0000	75.002
736.0000	74.702
735.0000	74.935
734.0000	75.442
733.0000	75.738
732.0000	75.728
731.0000	75.588
730.0000	75.646
729.0000	75.8
728.0000	75.947
727.0000	75.674
726.0000	75.376
725.0000	74.608
724.0000	74.494
723.0000	74.514
722.0000	74.157
721.0000	74.149
720.0000	74.158
719.0000	74.246
718.0000	74.202
717.0000	74.269
716.0000	74.301
715.0000	73.916
714.0000	74.171
713.0000	73.8
712.0000	73.892
711.0000	73.898
710.0000	73.767
709.0000	73.731
708.0000	73.883
707.0000	74.072
706.0000	73.599
705.0000	73.627
704.0000	73.117
703.0000	72.839
702.0000	72.829
701.0000	72.591
700.0000	71.986
699.0000	72.108
698.0000	71.802
697.0000	71.45
696.0000	71.081
695.0000	70.445
694.0000	69.855
693.0000	69.391
692.0000	69.283
691.0000	68.514
690.0000	68.278
689.0000	68.01
688.0000	67.66
687.0000	67.461
686.0000	67.153
685.0000	66.583
684.0000	65.878
683.0000	65.338
682.0000	64.51
681.0000	63.814
680.0000	62.785
679.0000	61.753
678.0000	60.78
677.0000	60.008
676.0000	59.178
675.0000	58.294
674.0000	57.327
673.0000	56.006
672.0000	54.878
671.0000	53.599
670.0000	52.208
669.0000	50.581
668.0000	48.867
667.0000	46.712
666.0000	44.61
665.0000	42.455
664.0000	39.951
663.0000	37.247
662.0000	34.285
661.0000	31.189
660.0000	27.836
659.0000	24.613
658.0000	21.35
657.0000	18.124
656.0000	15.228
655.0000	12.498
654.0000	10.064
653.0000	7.952
652.0000	6.174
651.0000	4.698
650.0000	3.501
649.0000	2.586
648.0000	1.852
647.0000	1.331
646.0000	0.929
645.0000	0.639
644.0000	0.455
643.0000	0.338
642.0000	0.255
641.0000	0.187
640.0000	0.157
639.0000	0.124
638.0000	0.133
637.0000	0.131
636.0000	0.119
635.0000	0.12
634.0000	0.139
633.0000	0.157
632.0000	0.176
631.0000	0.208
630.0000	0.234
629.0000	0.287
628.0000	0.347
627.0000	0.412
626.0000	0.503
625.0000	0.619
624.0000	0.753
623.0000	0.907
622.0000	1.079
621.0000	1.273
620.0000	1.496
619.0000	1.743
618.0000	1.98
617.0000	2.229
616.0000	2.483
615.0000	2.761
614.0000	3.033
613.0000	3.299
612.0000	3.569
611.0000	3.835
610.0000	4.081
609.0000	4.317
608.0000	4.531
607.0000	4.703
606.0000	4.859
605.0000	4.96
604.0000	5.02
603.0000	5.005
602.0000	4.989
601.0000	4.893
600.0000	4.746
599.0000	4.541
598.0000	4.31
597.0000	4.048
596.0000	3.777
595.0000	3.491
594.0000	3.166
593.0000	2.902
592.0000	2.642
591.0000	2.403
590.0000	2.202
589.0000	2.055
588.0000	1.917
587.0000	1.811
586.0000	1.766
585.0000	1.722
584.0000	1.719
583.0000	1.758
582.0000	1.817
581.0000	1.89
580.0000	1.987
579.0000	2.14
578.0000	2.276
577.0000	2.432
576.0000	2.577
575.0000	2.736
574.0000	2.883
573.0000	3.01
572.0000	3.116
571.0000	3.182
570.0000	3.24
569.0000	3.279
568.0000	3.318
567.0000	3.333
566.0000	3.314
565.0000	3.312
564.0000	3.336
563.0000	3.379
562.0000	3.421
561.0000	3.508
560.0000	3.581
559.0000	3.699
558.0000	3.846
557.0000	3.986
556.0000	4.135
555.0000	4.277
554.0000	4.429
553.0000	4.594
552.0000	4.791
551.0000	4.928
550.0000	5.096
549.0000	5.253
548.0000	5.426
547.0000	5.61
546.0000	5.765
545.0000	5.919
544.0000	6.109
543.0000	6.314
542.0000	6.521
541.0000	6.746
540.0000	6.988
539.0000	7.268
538.0000	7.597
537.0000	7.89
536.0000	8.162
535.0000	8.481
534.0000	8.755
533.0000	9.062
532.0000	9.293
531.0000	9.529
530.0000	9.732
529.0000	9.913
528.0000	10.065
527.0000	10.183
526.0000	10.322
525.0000	10.437
524.0000	10.604
523.0000	10.82
522.0000	11.046
521.0000	11.318
520.0000	11.657
519.0000	11.707
518.0000	11.801
517.0000	11.959
516.0000	12.21
515.0000	12.508
514.0000	12.811
513.0000	13.125
512.0000	13.427
511.0000	13.73
510.0000	13.997
509.0000	14.215
508.0000	14.486
507.0000	14.698
506.0000	14.9
505.0000	15.096
504.0000	15.358
503.0000	15.599
502.0000	15.827
501.0000	16.066
500.0000	16.302
499.0000	16.494
498.0000	16.681
497.0000	16.863
496.0000	16.919
495.0000	16.992
494.0000	17.018
493.0000	17.071
492.0000	17.068
491.0000	17.033
490.0000	16.964
489.0000	16.855
488.0000	16.791
487.0000	16.692
486.0000	16.575
485.0000	16.403
484.0000	16.256
483.0000	16.116
482.0000	15.928
481.0000	15.811
480.0000	15.653
479.0000	15.482
478.0000	15.36
477.0000	15.208
476.0000	15.062
475.0000	14.932
474.0000	14.85
473.0000	14.708
472.0000	14.604
471.0000	14.528
470.0000	14.404
469.0000	14.352
468.0000	14.328
467.0000	14.336
466.0000	14.338
465.0000	14.338
464.0000	14.332
463.0000	14.32
462.0000	14.412
461.0000	14.452
460.0000	14.445
459.0000	14.448
458.0000	14.48
457.0000	14.504
456.0000	14.531
455.0000	14.584
454.0000	14.55
453.0000	14.511
452.0000	14.532
451.0000	14.496
450.0000	14.426
449.0000	14.385
448.0000	14.349
447.0000	14.266
446.0000	14.201
445.0000	14.171
444.0000	14.137
443.0000	14.094
442.0000	14.042
441.0000	14.001
440.0000	13.966
439.0000	13.965
438.0000	13.946
437.0000	13.984
436.0000	13.962
435.0000	13.944
434.0000	13.992
433.0000	14.033
432.0000	14.101
431.0000	14.127
430.0000	14.214
429.0000	14.255
428.0000	14.324
427.0000	14.434
426.0000	14.569
425.0000	14.706
424.0000	14.916
423.0000	15.131
422.0000	15.436
421.0000	15.654
420.0000	15.819
419.0000	15.79
418.0000	15.877
417.0000	15.842
416.0000	15.879
415.0000	16.116
414.0000	16.307
413.0000	16.494
412.0000	16.753
411.0000	16.966
410.0000	17.127
409.0000	17.419
408.0000	17.777
407.0000	18.068
406.0000	18.26
405.0000	18.58
404.0000	19.02
403.0000	19.449
402.0000	19.79
401.0000	20.142
400.0000	20.48
