TITLE	
DATA TYPE	
ORIGIN	JASCO
OWNER	
DATE	25/03/18
TIME	17:25:39
SPECTROMETER/DATA SYSTEM	JASCO Corp., V-560, Rev. 1.00
RESOLUTION	
DELTAX	-1
XUNITS	NANOMETERS
YUNITS	TRANSMITTANCE
FIRSTX	800.0000
LASTX	400.0000
NPOINTS	401
FIRSTY	0.77446
MAXY	0.78861
MINY	0.10845
XYDATA
800.0000	77.446
799.0000	77.566
798.0000	77.465
797.0000	77.772
796.0000	77.43
795.0000	77.424
794.0000	77.252
793.0000	77.087
792.0000	77.189
791.0000	77.311
790.0000	77.527
789.0000	77.562
788.0000	77.601
787.0000	78.312
786.0000	78.323
785.0000	78.102
784.0000	77.908
783.0000	77.863
782.0000	77.632
781.0000	77.504
780.0000	77.68
779.0000	77.548
778.0000	77.438
777.0000	77.821
776.0000	78.345
775.0000	78.127
774.0000	78.861
773.0000	78.434
772.0000	77.877
771.0000	77.723
770.0000	77.79
769.0000	77.265
768.0000	76.46
767.0000	76.645
766.0000	75.974
765.0000	76.362
764.0000	77.017
763.0000	77.205
762.0000	77.068
761.0000	77.271
760.0000	77.756
759.0000	77.708
758.0000	77.823
757.0000	77.777
756.0000	77.893
755.0000	77.526
754.0000	77.844
753.0000	77.986
752.0000	77.542
751.0000	76.99
750.0000	77.152
749.0000	77.202
748.0000	76.683
747.0000	76.973
746.0000	76.905
745.0000	76.823
744.0000	77.716
743.0000	77.413
742.0000	77.592
741.0000	77.786
740.0000	77.538
739.0000	77.059
738.0000	76.718
737.0000	76.41
736.0000	76.485
735.0000	76.482
734.0000	76.937
733.0000	77.398
732.0000	77.082
731.0000	77.323
730.0000	77.622
729.0000	77.414
728.0000	77.397
727.0000	77.291
726.0000	77.277
725.0000	76.816
724.0000	76.609
723.0000	76.82
722.0000	76.524
721.0000	76.935
720.0000	76.758
719.0000	76.709
718.0000	76.794
717.0000	76.758
716.0000	76.9
715.0000	76.839
714.0000	76.93
713.0000	76.761
712.0000	76.944
711.0000	77.15
710.0000	77.103
709.0000	77.306
708.0000	77.565
707.0000	77.509
706.0000	77.463
705.0000	77.5
704.0000	77.262
703.0000	76.981
702.0000	76.873
701.0000	76.444
700.0000	76.09
699.0000	76.309
698.0000	76.064
697.0000	75.967
696.0000	75.907
695.0000	75.811
694.0000	75.728
693.0000	75.728
692.0000	75.842
691.0000	75.552
690.0000	75.63
689.0000	75.438
688.0000	75.339
687.0000	75.297
686.0000	75.168
685.0000	75.291
684.0000	75.025
683.0000	75.039
682.0000	74.857
681.0000	74.752
680.0000	74.623
679.0000	74.536
678.0000	74.325
677.0000	74.165
676.0000	74.305
675.0000	74.023
674.0000	73.975
673.0000	73.746
672.0000	73.782
671.0000	73.541
670.0000	73.432
669.0000	73.095
668.0000	72.656
667.0000	72.185
666.0000	71.744
665.0000	71.542
664.0000	70.802
663.0000	70.092
662.0000	69.293
661.0000	68.247
660.0000	66.897
659.0000	65.59
658.0000	63.907
657.0000	61.926
656.0000	59.963
655.0000	57.552
654.0000	54.81
653.0000	51.965
652.0000	48.811
651.0000	45.292
650.0000	41.736
649.0000	38.099
648.0000	34.333
647.0000	30.857
646.0000	27.56
645.0000	24.349
644.0000	21.64
643.0000	19.169
642.0000	17.026
641.0000	15.219
640.0000	13.758
639.0000	12.637
638.0000	11.756
637.0000	11.187
636.0000	10.888
635.0000	10.845
634.0000	10.995
633.0000	11.331
632.0000	11.85
631.0000	12.51
630.0000	13.36
629.0000	14.36
628.0000	15.334
627.0000	16.494
626.0000	17.723
625.0000	18.995
624.0000	20.21
623.0000	21.558
622.0000	22.827
621.0000	24.203
620.0000	25.535
619.0000	26.847
618.0000	28.115
617.0000	29.317
616.0000	30.488
615.0000	31.451
614.0000	32.41
613.0000	33.258
612.0000	34.123
611.0000	34.892
610.0000	35.517
609.0000	36.095
608.0000	36.69
607.0000	37.185
606.0000	37.545
605.0000	37.7
604.0000	37.971
603.0000	37.981
602.0000	37.932
601.0000	37.828
600.0000	37.569
599.0000	37.158
598.0000	36.665
597.0000	36.151
596.0000	35.31
595.0000	34.486
594.0000	33.573
593.0000	32.538
592.0000	31.474
591.0000	30.53
590.0000	29.677
589.0000	28.811
588.0000	28.123
587.0000	27.513
586.0000	27.056
585.0000	26.832
584.0000	26.697
583.0000	26.619
582.0000	26.805
581.0000	27.13
580.0000	27.555
579.0000	28.129
578.0000	28.744
577.0000	29.383
576.0000	30.078
575.0000	30.869
574.0000	31.54
573.0000	32.126
572.0000	32.648
571.0000	33.07
570.0000	33.506
569.0000	33.817
568.0000	34.07
567.0000	34.236
566.0000	34.297
565.0000	34.361
564.0000	34.416
563.0000	34.44
562.0000	34.535
561.0000	34.699
560.0000	34.82
559.0000	35.06
558.0000	35.312
557.0000	35.531
556.0000	35.874
555.0000	36.208
554.0000	36.421
553.0000	36.707
552.0000	37.002
551.0000	37.133
550.0000	37.385
549.0000	37.642
548.0000	37.859
547.0000	38.059
546.0000	38.256
545.0000	38.41
544.0000	38.701
543.0000	39.031
542.0000	39.273
541.0000	39.562
540.0000	39.85
539.0000	40.271
538.0000	40.747
537.0000	41.094
536.0000	41.443
535.0000	41.818
534.0000	42.152
533.0000	42.566
532.0000	42.929
531.0000	43.203
530.0000	43.406
529.0000	43.675
528.0000	43.784
527.0000	43.877
526.0000	43.92
525.0000	43.943
524.0000	43.898
523.0000	43.884
522.0000	43.9
521.0000	44.158
520.0000	43.951
519.0000	43.983
518.0000	43.912
517.0000	43.931
516.0000	43.957
515.0000	44.038
514.0000	44.126
513.0000	44.337
512.0000	44.369
511.0000	44.414
510.0000	44.301
509.0000	44.277
508.0000	44.454
507.0000	44.482
506.0000	44.506
505.0000	44.46
504.0000	44.486
503.0000	44.449
502.0000	44.52
501.0000	44.53
500.0000	44.314
499.0000	44.161
498.0000	43.883
497.0000	43.675
496.0000	43.363
495.0000	43.07
494.0000	42.602
493.0000	42.19
492.0000	41.7
491.0000	41.188
490.0000	40.756
489.0000	40.141
488.0000	39.548
487.0000	38.837
486.0000	38.122
485.0000	37.434
484.0000	36.784
483.0000	36.211
482.0000	35.465
481.0000	34.816
480.0000	34.15
479.0000	33.516
478.0000	32.985
477.0000	32.368
476.0000	31.737
475.0000	31.061
474.0000	30.55
473.0000	29.98
472.0000	29.56
471.0000	29.179
470.0000	28.735
469.0000	28.36
468.0000	28.017
467.0000	27.632
466.0000	27.369
465.0000	27.138
464.0000	26.883
463.0000	26.709
462.0000	26.566
461.0000	26.366
460.0000	26.21
459.0000	26.112
458.0000	26.009
457.0000	25.847
456.0000	25.735
455.0000	25.509
454.0000	25.347
453.0000	25.278
452.0000	25.141
451.0000	25.022
450.0000	24.814
449.0000	24.623
448.0000	24.42
447.0000	24.238
446.0000	24.018
445.0000	23.705
444.0000	23.516
443.0000	23.282
442.0000	23.033
441.0000	22.855
440.0000	22.618
439.0000	22.4
438.0000	22.229
437.0000	22.195
436.0000	22.045
435.0000	21.939
434.0000	21.835
433.0000	21.784
432.0000	21.77
431.0000	21.695
430.0000	21.698
429.0000	21.641
428.0000	21.632
427.0000	21.626
426.0000	21.748
425.0000	21.826
424.0000	21.954
423.0000	22.01
422.0000	22.274
421.0000	22.336
420.0000	22.538
419.0000	22.491
418.0000	22.57
417.0000	22.632
416.0000	22.699
415.0000	22.834
414.0000	23.085
413.0000	23.271
412.0000	23.36
411.0000	23.527
410.0000	23.697
409.0000	23.914
408.0000	24.201
407.0000	24.493
406.0000	24.705
405.0000	25.045
404.0000	25.615
403.0000	25.966
402.0000	26.281
401.0000	26.569
400.0000	26.86
