TITLE	
DATA TYPE	
ORIGIN	JASCO
OWNER	
DATE	25/03/18
TIME	17:45:46
SPECTROMETER/DATA SYSTEM	JASCO Corp., V-560, Rev. 1.00
RESOLUTION	
DELTAX	-1
XUNITS	NANOMETERS
YUNITS	TRANSMITTANCE
FIRSTX	800.0000
LASTX	400.0000
NPOINTS	401
FIRSTY	0.78796
MAXY	0.78952
MINY	0.00070
XYDATA
800.0000	78.796
799.0000	78.255
798.0000	78.702
797.0000	78.657
796.0000	78.328
795.0000	78.706
794.0000	78.613
793.0000	78.395
792.0000	78.192
791.0000	78.257
790.0000	78.243
789.0000	78.379
788.0000	78.885
787.0000	78.952
786.0000	78.854
785.0000	78.534
784.0000	78.286
783.0000	78.204
782.0000	78.346
781.0000	77.981
780.0000	77.681
779.0000	78.01
778.0000	77.837
777.0000	78.165
776.0000	78.325
775.0000	78.21
774.0000	77.852
773.0000	77.767
772.0000	77.924
771.0000	77.509
770.0000	77.681
769.0000	77.331
768.0000	77.093
767.0000	77.332
766.0000	77.397
765.0000	77.864
764.0000	77.508
763.0000	77.612
762.0000	77.815
761.0000	77.696
760.0000	77.984
759.0000	77.903
758.0000	77.873
757.0000	77.891
756.0000	78.177
755.0000	77.714
754.0000	77.406
753.0000	77.869
752.0000	77.488
751.0000	76.955
750.0000	76.988
749.0000	76.754
748.0000	76.726
747.0000	77.098
746.0000	77.085
745.0000	76.691
744.0000	77.311
743.0000	77.222
742.0000	77.187
741.0000	77.815
740.0000	77.495
739.0000	77.249
738.0000	77.144
737.0000	77.197
736.0000	76.98
735.0000	76.829
734.0000	77.32
733.0000	77.515
732.0000	77.444
731.0000	76.857
730.0000	76.899
729.0000	76.345
728.0000	76.383
727.0000	76.243
726.0000	75.704
725.0000	74.9
724.0000	75.108
723.0000	75.468
722.0000	75.093
721.0000	75.386
720.0000	75.46
719.0000	75.483
718.0000	75.756
717.0000	75.792
716.0000	75.874
715.0000	75.747
714.0000	75.821
713.0000	75.85
712.0000	75.809
711.0000	75.825
710.0000	75.586
709.0000	75.625
708.0000	75.125
707.0000	74.964
706.0000	74.758
705.0000	74.309
704.0000	73.684
703.0000	73.616
702.0000	73.189
701.0000	72.906
700.0000	72.795
699.0000	72.845
698.0000	72.35
697.0000	72.245
696.0000	72.122
695.0000	71.519
694.0000	71.192
693.0000	70.715
692.0000	70.424
691.0000	69.495
690.0000	69.379
689.0000	68.953
688.0000	68.333
687.0000	67.961
686.0000	67.418
685.0000	66.886
684.0000	65.938
683.0000	65.391
682.0000	64.469
681.0000	63.715
680.0000	63.02
679.0000	61.926
678.0000	60.954
677.0000	60.007
676.0000	59.313
675.0000	58.273
674.0000	57.087
673.0000	55.619
672.0000	54.366
671.0000	53.069
670.0000	51.647
669.0000	49.896
668.0000	47.917
667.0000	45.753
666.0000	43.555
665.0000	41.193
664.0000	38.482
663.0000	35.577
662.0000	32.454
661.0000	29.307
660.0000	26.018
659.0000	22.907
658.0000	19.687
657.0000	16.675
656.0000	13.832
655.0000	11.226
654.0000	8.899
653.0000	6.93
652.0000	5.285
651.0000	3.942
650.0000	2.898
649.0000	2.079
648.0000	1.476
647.0000	1.025
646.0000	0.716
645.0000	0.504
644.0000	0.36
643.0000	0.259
642.0000	0.195
641.0000	0.146
640.0000	0.113
639.0000	0.094
638.0000	0.078
637.0000	0.074
636.0000	0.07
635.0000	0.073
634.0000	0.081
633.0000	0.096
632.0000	0.116
631.0000	0.141
630.0000	0.172
629.0000	0.212
628.0000	0.264
627.0000	0.317
626.0000	0.385
625.0000	0.468
624.0000	0.567
623.0000	0.687
622.0000	0.812
621.0000	0.966
620.0000	1.144
619.0000	1.327
618.0000	1.537
617.0000	1.751
616.0000	1.975
615.0000	2.191
614.0000	2.424
613.0000	2.633
612.0000	2.839
611.0000	3.069
610.0000	3.28
609.0000	3.473
608.0000	3.643
607.0000	3.817
606.0000	3.948
605.0000	4.054
604.0000	4.118
603.0000	4.128
602.0000	4.086
601.0000	4.002
600.0000	3.888
599.0000	3.707
598.0000	3.512
597.0000	3.283
596.0000	3.058
595.0000	2.801
594.0000	2.558
593.0000	2.332
592.0000	2.115
591.0000	1.921
590.0000	1.76
589.0000	1.629
588.0000	1.513
587.0000	1.435
586.0000	1.377
585.0000	1.357
584.0000	1.352
583.0000	1.373
582.0000	1.412
581.0000	1.47
580.0000	1.551
579.0000	1.669
578.0000	1.798
577.0000	1.934
576.0000	2.082
575.0000	2.223
574.0000	2.357
573.0000	2.482
572.0000	2.595
571.0000	2.681
570.0000	2.732
569.0000	2.76
568.0000	2.764
567.0000	2.775
566.0000	2.78
565.0000	2.794
564.0000	2.81
563.0000	2.834
562.0000	2.884
561.0000	2.954
560.0000	3.035
559.0000	3.128
558.0000	3.247
557.0000	3.368
556.0000	3.483
555.0000	3.598
554.0000	3.739
553.0000	3.874
552.0000	4.009
551.0000	4.147
550.0000	4.277
549.0000	4.425
548.0000	4.559
547.0000	4.744
546.0000	4.894
545.0000	5.038
544.0000	5.231
543.0000	5.45
542.0000	5.659
541.0000	5.864
540.0000	6.104
539.0000	6.331
538.0000	6.612
537.0000	6.908
536.0000	7.164
535.0000	7.395
534.0000	7.662
533.0000	7.919
532.0000	8.155
531.0000	8.362
530.0000	8.503
529.0000	8.637
528.0000	8.8
527.0000	8.916
526.0000	9.017
525.0000	9.112
524.0000	9.293
523.0000	9.489
522.0000	9.688
521.0000	9.94
520.0000	10.264
519.0000	10.342
518.0000	10.492
517.0000	10.624
516.0000	10.863
515.0000	11.155
514.0000	11.455
513.0000	11.736
512.0000	12.029
511.0000	12.276
510.0000	12.48
509.0000	12.693
508.0000	12.954
507.0000	13.169
506.0000	13.351
505.0000	13.551
504.0000	13.765
503.0000	14.029
502.0000	14.29
501.0000	14.537
500.0000	14.816
499.0000	15.021
498.0000	15.285
497.0000	15.482
496.0000	15.618
495.0000	15.673
494.0000	15.699
493.0000	15.772
492.0000	15.721
491.0000	15.722
490.0000	15.644
489.0000	15.581
488.0000	15.538
487.0000	15.475
486.0000	15.414
485.0000	15.298
484.0000	15.19
483.0000	15.132
482.0000	14.995
481.0000	14.865
480.0000	14.68
479.0000	14.548
478.0000	14.371
477.0000	14.249
476.0000	14.113
475.0000	13.905
474.0000	13.759
473.0000	13.597
472.0000	13.49
471.0000	13.441
470.0000	13.356
469.0000	13.3
468.0000	13.262
467.0000	13.254
466.0000	13.305
465.0000	13.37
464.0000	13.434
463.0000	13.452
462.0000	13.527
461.0000	13.554
460.0000	13.597
459.0000	13.637
458.0000	13.67
457.0000	13.712
456.0000	13.741
455.0000	13.777
454.0000	13.783
453.0000	13.824
452.0000	13.84
451.0000	13.869
450.0000	13.855
449.0000	13.86
448.0000	13.832
447.0000	13.746
446.0000	13.721
445.0000	13.65
444.0000	13.624
443.0000	13.558
442.0000	13.508
441.0000	13.443
440.0000	13.389
439.0000	13.373
438.0000	13.355
437.0000	13.346
436.0000	13.308
435.0000	13.361
434.0000	13.404
433.0000	13.442
432.0000	13.538
431.0000	13.609
430.0000	13.707
429.0000	13.789
428.0000	13.912
427.0000	13.964
426.0000	14.065
425.0000	14.217
424.0000	14.464
423.0000	14.633
422.0000	14.907
421.0000	15.077
420.0000	15.242
419.0000	15.255
418.0000	15.335
417.0000	15.383
416.0000	15.473
415.0000	15.6
414.0000	15.858
413.0000	16.024
412.0000	16.221
411.0000	16.456
410.0000	16.611
409.0000	16.877
408.0000	17.173
407.0000	17.44
406.0000	17.644
405.0000	17.892
404.0000	18.467
403.0000	18.874
402.0000	19.297
401.0000	19.767
400.0000	19.941
